#Wavelength [micron] J_nu [erg s-1 cm-2 Hz-1 sr-1]
6.0 1.509769714286952e-20
7.0 3.3713559874780523e-19
8.0 3.281931249373059e-18
9.0 1.8479218170434933e-17
10.0 7.12230483206837e-17
11.0 2.0900641452385425e-16
12.0 5.01062973141735e-16
13.0 1.0300179232983192e-15
14.0 1.879001743874692e-15
15.0 3.1188501755040594e-15
16.0 4.798760616159848e-15
17.0 6.941714810372695e-15
18.0 9.544328117163341e-15
19.0 1.2579927939440851e-14
20.0 1.600347189634239e-14
21.0 1.975711236717086e-14
22.0 2.3775558429106953e-14
23.0 2.7990730745020065e-14
24.0 3.233548146912084e-14
25.0 3.674634276514747e-14
26.0 4.1165382975269616e-14
27.0 4.5541307055238545e-14
28.0 4.9829956299802096e-14
29.0 5.399435706164372e-14
30.0 5.800445038415009e-14
31.0 6.183661170936087e-14
32.0 6.54730466306288e-14
33.0 6.890112749709914e-14
34.0 7.211271764385127e-14
35.0 7.510351538982922e-14
36.0 7.787243852991021e-14
37.0 8.042106144305822e-14
38.0 8.275311066723385e-14
39.0 8.487402038323188e-14
40.0 8.679054628233499e-14
41.0 8.851043440986148e-14
42.0 9.004214048839273e-14
43.0 9.13945947022027e-14
44.0 9.257700679265881e-14
45.0 9.359870644133494e-14
46.0 9.446901420644235e-14
47.0 9.51971386593779e-14
48.0 9.579209579294665e-14
49.0 9.626264720797738e-14
50.0 9.661725400892525e-14
51.0 9.686404373823982e-14
52.0 9.701078804626066e-14
53.0 9.706488912470821e-14
54.0 9.703337322676003e-14
55.0 9.692288985627245e-14
56.0 9.673971543505586e-14
57.0 9.64897604529465e-14
58.0 9.617857927373382e-14
59.0 9.581138191380522e-14
60.0 9.539304723260352e-14
61.0 9.377407858241041e-14
62.0 9.215741013211357e-14
63.0 9.054645415685854e-14
64.0 8.89442157206489e-14
65.0 8.735333108767521e-14
66.0 8.577610297706575e-14
67.0 8.421453285375989e-14
68.0 8.267035045090842e-14
69.0 8.114504071763113e-14
70.0 7.963986838127184e-14
71.0 7.815590030640068e-14
72.0 7.669402582442551e-14
73.0 7.525497519835248e-14
74.0 7.383933637738805e-14
75.0 7.244757018603172e-14
76.0 7.108002408230165e-14
77.0 6.973694460993903e-14
78.0 6.841848865997861e-14
79.0 6.712473364803023e-14
80.0 6.585568670505055e-14
81.0 6.461129297131954e-14
82.0 6.339144307579162e-14
83.0 6.219597987596275e-14
84.0 6.102470452687472e-14
85.0 5.987738194184912e-14
86.0 5.875374570198653e-14
87.0 5.765350246635334e-14
88.0 5.657633593009056e-14
89.0 5.55219103733793e-14
90.0 5.448987384026952e-14
91.0 5.3479860982788976e-14
92.0 5.249149560247503e-14
93.0 5.1524392918488254e-14
94.0 5.057816158875002e-14
95.0 4.9652405508075217e-14
96.0 4.874672540502413e-14
97.0 4.786072025715622e-14
98.0 4.699398854251413e-14
99.0 4.6146129343484244e-14
100.0 4.531674331765261e-14
101.0 4.450543354888973e-14
102.0 4.371180629064272e-14
103.0 4.293547161227298e-14
104.0 4.217604395824728e-14
105.0 4.1433142629053326e-14
106.0 4.070639219186388e-14
107.0 3.999542282820563e-14
108.0 3.929987062519303e-14
109.0 3.8619377816257807e-14
110.0 3.795359297673318e-14
111.0 3.7302171179135553e-14
112.0 3.6664774112518024e-14
113.0 3.604107016984627e-14
114.0 3.543073450696279e-14
115.0 3.48334490763586e-14
116.0 3.424890263865623e-14
117.0 3.367679075442253e-14
118.0 3.3116815758672594e-14
119.0 3.256868672019102e-14
120.0 3.2032119387586776e-14
121.0 3.150683612380505e-14
122.0 3.0992565830647e-14
123.0 3.048904386469103e-14
124.0 2.999601194586703e-14
125.0 2.951321805980724e-14
126.0 2.9040416354980115e-14
127.0 2.857736703550945e-14
128.0 2.8123836250485017e-14
129.0 2.7679595980485356e-14
130.0 2.724442392195563e-14
131.0 2.6818103370013012e-14
132.0 2.6400423100188474e-14
133.0 2.5991177249556612e-14
134.0 2.5590165197653388e-14
135.0 2.5197191447534568e-14
136.0 2.4812065507285794e-14
137.0 2.4434601772256984e-14
138.0 2.4064619408259312e-14
139.0 2.370194223593258e-14
140.0 2.3346398616462414e-14
141.0 2.299782133880198e-14
142.0 2.2656047508530508e-14
143.0 2.2320918438460473e-14
144.0 2.199227954108722e-14
145.0 2.16699802229588e-14
146.0 2.135387378102887e-14
147.0 2.104381730104286e-14
148.0 2.0739671557995613e-14
149.0 2.044130091868893e-14
150.0 2.0148573246407607e-14
151.0 1.986135980772487e-14
152.0 1.9579535181440604e-14
153.0 1.9302977169649578e-14
154.0 1.903156671093106e-14
155.0 1.8765187795646406e-14
156.0 1.8503727383326804e-14
157.0 1.824707532212964e-14
158.0 1.7995124270338776e-14
159.0 1.7747769619880955e-14
160.0 1.7504909421828473e-14
161.0 1.7266444313856132e-14
162.0 1.7032277449618566e-14
163.0 1.6802314430013054e-14
164.0 1.6576463236291337e-14
165.0 1.6354634164983464e-14
166.0 1.6136739764595693e-14
167.0 1.5922694774044145e-14
168.0 1.571241606278553e-14
169.0 1.5505822572606076e-14
170.0 1.5302835261029706e-14
171.0 1.5103377046306676e-14
172.0 1.49073727539439e-14
173.0 1.4714749064738632e-14
174.0 1.4525434464277384e-14
175.0 1.433935919386223e-14
176.0 1.415645520282767e-14
177.0 1.3976656102210819e-14
178.0 1.3799897119739275e-14
179.0 1.3626115056100782e-14
180.0 1.345524824245993e-14
181.0 1.3287236499187555e-14
182.0 1.3122021095769305e-14
183.0 1.2959544711860363e-14
184.0 1.2799751399454296e-14
185.0 1.2642586546134345e-14
186.0 1.2487996839376565e-14
187.0 1.233593023187459e-14
188.0 1.2186335907856845e-14
189.0 1.203916425036753e-14
190.0 1.1894366809483402e-14
191.0 1.1751896271439357e-14
192.0 1.1611706428636131e-14
193.0 1.1473752150504453e-14
194.0 1.1337989355200568e-14
195.0 1.120437498210862e-14
196.0 1.1072866965126204e-14
197.0 1.0943424206710037e-14
198.0 1.0816006552659172e-14
199.0 1.0690574767614084e-14
200.0 1.0567090511250317e-14
201.0 1.0445516315146161e-14
202.0 1.0325815560304317e-14
203.0 1.0207952455308202e-14
204.0 1.0091892015093965e-14
205.0 9.977600040319923e-15
206.0 9.865043097315742e-15
207.0 9.754188498593983e-15
208.0 9.645004283907467e-15
209.0 9.53745920183605e-15
210.0 9.431522691887226e-15
211.0 9.327164867095188e-15
212.0 9.224356497103616e-15
213.0 9.123068991717777e-15
214.0 9.023274384912064e-15
215.0 8.924945319279419e-15
216.0 8.82805503090961e-15
217.0 8.732577334683642e-15
218.0 8.638486609971974e-15
219.0 8.545757786724672e-15
220.0 8.45436633194187e-15
221.0 8.364288236513411e-15
222.0 8.275500002416697e-15
223.0 8.187978630262316e-15
224.0 8.101701607177192e-15
225.0 8.016646895015342e-15
226.0 7.932792918886698e-15
227.0 7.850118555994647e-15
228.0 7.768603124773306e-15
229.0 7.688226374315819e-15
230.0 7.60896847408513e-15
231.0 7.530810003899126e-15
232.0 7.453731944182098e-15
233.0 7.377715666474892e-15
234.0 7.302742924196222e-15
235.0 7.228795843647915e-15
236.0 7.155856915257058e-15
237.0 7.0839089850482615e-15
238.0 7.012935246339403e-15
239.0 6.94291923165448e-15
240.0 6.873844804847338e-15
241.0 6.805696153430294e-15
242.0 6.738457781101821e-15
243.0 6.672114500467571e-15
244.0 6.606651425949373e-15
245.0 6.542053966876769e-15
246.0 6.478307820756017e-15
247.0 6.415398966711526e-15
248.0 6.35331365909487e-15
249.0 6.292038421256712e-15
250.0 6.2315600394770166e-15
251.0 6.171865557049216e-15
252.0 6.112942268513954e-15
253.0 6.05477771403829e-15
254.0 5.997359673936339e-15
255.0 5.9406761633273735e-15
256.0 5.884715426927677e-15
257.0 5.829465933972359e-15
258.0 5.774916373263662e-15
259.0 5.7210556483421874e-15
260.0 5.667872872777774e-15
261.0 5.61535736557667e-15
262.0 5.563498646701896e-15
263.0 5.512286432703686e-15
264.0 5.461710632457012e-15
265.0 5.4117613430033725e-15
266.0 5.362428845493868e-15
267.0 5.313703601231046e-15
268.0 5.265576247806658e-15
269.0 5.218037595332901e-15
270.0 5.171078622764575e-15
271.0 5.124690474309749e-15
272.0 5.078864455926557e-15
273.0 5.0335920319038995e-15
274.0 4.988864821523723e-15
275.0 4.944674595802824e-15
276.0 4.90101327431203e-15
277.0 4.857872922070707e-15
278.0 4.815245746514671e-15
279.0 4.773124094535513e-15
280.0 4.731500449589541e-15
281.0 4.690367428874463e-15
282.0 4.649717780572107e-15
283.0 4.6095443811554094e-15
284.0 4.5698402327580605e-15
285.0 4.530598460605155e-15
286.0 4.491812310503291e-15
287.0 4.453475146388588e-15
288.0 4.415580447931142e-15
289.0 4.378121808194483e-15
290.0 4.3410929313485956e-15
291.0 4.304487630435211e-15
292.0 4.268299825183959e-15
293.0 4.232523539878161e-15
294.0 4.197152901268985e-15
295.0 4.162182136536719e-15
296.0 4.127605571298045e-15
297.0 4.0934176276580745e-15
298.0 4.059612822306114e-15
299.0 4.02618576465399e-15
300.0 3.993131155015938e-15
301.0 3.960443782828984e-15
302.0 3.928118524912829e-15
303.0 3.896150343768277e-15
304.0 3.864534285913201e-15
305.0 3.8332654802552195e-15
306.0 3.802339136500069e-15
307.0 3.77175054359491e-15
308.0 3.741495068205616e-15
309.0 3.7115681532272955e-15
310.0 3.681965316327184e-15
311.0 3.652682148519172e-15
312.0 3.6237143127691486e-15
313.0 3.5950575426304616e-15
314.0 3.5667076409087665e-15
315.0 3.538660478355515e-15
316.0 3.510911992389463e-15
317.0 3.4834581858454742e-15
318.0 3.456295125750004e-15
319.0 3.429418942122599e-15
320.0 3.4028258268028395e-15
321.0 3.376512032302068e-15
322.0 3.3504738706793582e-15
323.0 3.3247077124411513e-15
324.0 3.2992099854639806e-15
325.0 3.273977173939771e-15
326.0 3.2490058173431578e-15
327.0 3.224292509420342e-15
328.0 3.1998338971989524e-15
329.0 3.1756266800184555e-15
330.0 3.1516676085806024e-15
331.0 3.1279534840194838e-15
332.0 3.1044811569907324e-15
333.0 3.081247526779403e-15
334.0 3.058249540426154e-15
335.0 3.0354841918712718e-15
336.0 3.0129485211161353e-15
337.0 2.990639613401745e-15
338.0 2.9685545984039136e-15
339.0 2.9466906494447303e-15
340.0 2.925044982719954e-15
341.0 2.9036148565419677e-15
342.0 2.8823975705979172e-15
343.0 2.8613904652227562e-15
344.0 2.840590920686789e-15
345.0 2.8199963564974386e-15
346.0 2.7996042307149087e-15
347.0 2.7794120392814254e-15
348.0 2.759417315363756e-15
349.0 2.739617628708719e-15
350.0 2.7200105850114066e-15
351.0 2.700593825295805e-15
352.0 2.681365025307583e-15
353.0 2.6623218949187476e-15
354.0 2.643462177543939e-15
355.0 2.6247836495680653e-15
356.0 2.606284119785092e-15
357.0 2.5879614288476723e-15
358.0 2.569813448727457e-15
359.0 2.55183808218578e-15
360.0 2.5340332622545713e-15
361.0 2.5163969517271938e-15
362.0 2.4989271426590733e-15
363.0 2.4816218558778455e-15
364.0 2.4644791405028573e-15
365.0 2.4474970734738107e-15
366.0 2.4306737590883366e-15
367.0 2.4140073285483524e-15
368.0 2.397495939514957e-15
369.0 2.381137775671752e-15
370.0 2.3649310462963404e-15
371.0 2.3488739858398875e-15
372.0 2.3329648535145456e-15
373.0 2.317201932888582e-15
374.0 2.301583531489059e-15
375.0 2.2861079804118855e-15
376.0 2.2707736339391262e-15
377.0 2.2555788691633654e-15
378.0 2.2405220856190294e-15
379.0 2.225601704920492e-15
380.0 2.2108161704068327e-15
381.0 2.1961639467931083e-15
382.0 2.1816435198280155e-15
383.0 2.167253395957793e-15
384.0 2.1529921019962487e-15
385.0 2.138858184800798e-15
386.0 2.1248502109543534e-15
387.0 2.1109667664529945e-15
388.0 2.097206456399265e-15
389.0 2.0835679047009926e-15
390.0 2.0700497537755343e-15
391.0 2.056650664259313e-15
392.0 2.0433693147225667e-15
393.0 2.030204401389179e-15
394.0 2.0171546378615085e-15
395.0 2.004218754850105e-15
396.0 1.9913954999082314e-15
397.0 1.978683637171071e-15
398.0 1.9660819470995504e-15
399.0 1.953589226228674e-15
400.0 1.9412042869202843e-15
401.0 1.9289259571201614e-15
402.0 1.9167530801193776e-15
403.0 1.9046845143198138e-15
404.0 1.8927191330037728e-15
405.0 1.8808558241075994e-15
406.0 1.8690934899992217e-15
407.0 1.8574310472595565e-15
408.0 1.8458674264676858e-15
409.0 1.834401571989743e-15
410.0 1.823032441771434e-15
411.0 1.8117590071341065e-15
412.0 1.8005802525743392e-15
413.0 1.789495175566937e-15
414.0 1.7785027863713013e-15
415.0 1.7676021078410863e-15
416.0 1.756792175237104e-15
417.0 1.7460720360433855e-15
418.0 1.7354407497863677e-15
419.0 1.72489738785713e-15
420.0 1.7144410333366196e-15
421.0 1.7040707808238285e-15
422.0 1.69378573626684e-15
423.0 1.6835850167967137e-15
424.0 1.6734677505641444e-15
425.0 1.6634330765788405e-15
426.0 1.6534801445515815e-15
427.0 1.6436081147388971e-15
428.0 1.6338161577903145e-15
429.0 1.6241034545981382e-15
430.0 1.6144691961497122e-15
431.0 1.604912583382102e-15
432.0 1.5954328270391804e-15
433.0 1.5860291475310464e-15
434.0 1.5767007747957533e-15
435.0 1.5674469481632906e-15
436.0 1.5582669162217857e-15
437.0 1.5491599366858803e-15
438.0 1.540125276267245e-15
439.0 1.5311622105471952e-15
440.0 1.5222700238513611e-15
441.0 1.5134480091263862e-15
442.0 1.5046954678186053e-15
443.0 1.4960117097546788e-15
444.0 1.4873960530241397e-15
445.0 1.4788478238638176e-15
446.0 1.4703663565441145e-15
447.0 1.4619509932570906e-15
448.0 1.4536010840063325e-15
449.0 1.4453159864985692e-15
450.0 1.4370950660370075e-15
451.0 1.4289376954163548e-15
452.0 1.4208432548194956e-15
453.0 1.4128111317158048e-15
454.0 1.4048407207610467e-15
455.0 1.3969314236988597e-15
456.0 1.3890826492637719e-15
457.0 1.381293813085742e-15
458.0 1.3735643375961815e-15
459.0 1.3658936519354496e-15
460.0 1.3582811918617743e-15
461.0 1.3507263996615998e-15
462.0 1.343228724061308e-15
463.0 1.3357876201403159e-15
464.0 1.328402549245503e-15
465.0 1.3210729789069656e-15
466.0 1.3137983827550581e-15
467.0 1.3065782404387078e-15
468.0 1.2994120375449822e-15
469.0 1.2922992655198819e-15
470.0 1.2852394215903417e-15
471.0 1.2782320086874204e-15
472.0 1.2712765353706552e-15
473.0 1.264372515753561e-15
474.0 1.2575194694302618e-15
475.0 1.2507169214032247e-15
476.0 1.2439644020120844e-15
477.0 1.2372614468635435e-15
478.0 1.2306075967623156e-15
479.0 1.224002397643111e-15
480.0 1.2174454005036387e-15
481.0 1.2109361613386035e-15
482.0 1.2044742410746946e-15
483.0 1.1980592055065346e-15
484.0 1.1916906252335803e-15
485.0 1.1853680755979622e-15
486.0 1.179091136623242e-15
487.0 1.1728593929540697e-15
488.0 1.1666724337967361e-15
489.0 1.160529852860596e-15
490.0 1.1544312483003515e-15
491.0 1.1483762226591856e-15
492.0 1.1423643828127178e-15
493.0 1.1363953399137909e-15
494.0 1.1304687093380491e-15
495.0 1.124584110630319e-15
496.0 1.1187411674517609e-15
497.0 1.1129395075277925e-15
498.0 1.1071787625967605e-15
499.0 1.1014585683593565e-15
500.0 1.0957785644287607e-15
501.0 1.0901383942815056e-15
502.0 1.0845377052090415e-15
503.0 1.0789761482699978e-15
504.0 1.0734533782431288e-15
505.0 1.0679690535809306e-15
506.0 1.0625228363639189e-15
507.0 1.0571143922555588e-15
508.0 1.051743390457831e-15
509.0 1.0464095036674365e-15
510.0 1.0411124080326117e-15
511.0 1.0358517831105597e-15
512.0 1.0306273118254806e-15
513.0 1.02543868042719e-15
514.0 1.0202855784503282e-15
515.0 1.0151676986741267e-15
516.0 1.0100847370827549e-15
517.0 1.0050363928262051e-15
518.0 1.0000223681817387e-15
519.0 9.950423685158575e-16
520.0 9.900961022468111e-16
521.0 9.851832808076196e-16
522.0 9.803036186096142e-16
523.0 9.754568330064785e-16
524.0 9.706426442587852e-16
525.0 9.658607754990284e-16
526.0 9.611109526971274e-16
527.0 9.563929046264123e-16
528.0 9.517063628300745e-16
529.0 9.470510615880727e-16
530.0 9.424267378844936e-16
531.0 9.37833131375361e-16
532.0 9.332699843568796e-16
533.0 9.28737041734109e-16
534.0 9.242340509900683e-16
535.0 9.197607621552528e-16
536.0 9.153169277775714e-16
537.0 9.109023028926802e-16
538.0 9.065166449947249e-16
539.0 9.021597140074691e-16
540.0 8.978312722558178e-16
541.0 8.935310844377173e-16
542.0 8.892589175964329e-16
543.0 8.850145410931993e-16
544.0 8.807977265802316e-16
545.0 8.76608247974102e-16
546.0 8.724458814294647e-16
547.0 8.683104053131294e-16
548.0 8.642016001784856e-16
549.0 8.601192487402575e-16
550.0 8.560631358495966e-16
551.0 8.520330484695016e-16
552.0 8.480287756505608e-16
553.0 8.440501085070148e-16
554.0 8.400968401931342e-16
555.0 8.361687658799032e-16
556.0 8.32265682732013e-16
557.0 8.283873898851494e-16
558.0 8.245336884235825e-16
559.0 8.207043813580461e-16
560.0 8.168992736039018e-16
561.0 8.131181719595876e-16
562.0 8.093608850853506e-16
563.0 8.056272234822452e-16
564.0 8.019169994714111e-16
565.0 7.982300271736131e-16
566.0 7.945661224890452e-16
567.0 7.909251030773964e-16
568.0 7.873067883381692e-16
569.0 7.837109993912507e-16
570.0 7.801375590577316e-16
571.0 7.765862918409747e-16
572.0 7.730570239079153e-16
573.0 7.695495830706089e-16
574.0 7.660637987680067e-16
575.0 7.625995020479653e-16
576.0 7.591565255494838e-16
577.0 7.557347034851639e-16
578.0 7.523338716238928e-16
579.0 7.48953867273743e-16
580.0 7.455945292650902e-16
581.0 7.422556979339365e-16
582.0 7.389372151054517e-16
583.0 7.35638924077712e-16
584.0 7.323606696056484e-16
585.0 7.291022978851915e-16
586.0 7.258636565376151e-16
587.0 7.226445945940756e-16
588.0 7.19444962480339e-16
589.0 7.162646120017053e-16
590.0 7.131033963281103e-16
591.0 7.099611699794188e-16
592.0 7.068377888108949e-16
593.0 7.037331099988528e-16
594.0 7.006469920264852e-16
595.0 6.975792946698627e-16
596.0 6.9452987898411e-16
597.0 6.914986072897435e-16
598.0 6.884853431591848e-16
599.0 6.854899514034328e-16
600.0 6.825122980588996e-16
601.0 6.795522503744075e-16
602.0 6.766096767983441e-16
603.0 6.736844469659708e-16
604.0 6.707764316868878e-16
605.0 6.678855029326501e-16
606.0 6.650115338245305e-16
607.0 6.621543986214351e-16
608.0 6.593139727079584e-16
609.0 6.564901325825871e-16
610.0 6.536827558460412e-16
611.0 6.508917211897584e-16
612.0 6.481169083845137e-16
613.0 6.453581982691768e-16
614.0 6.426154727396012e-16
615.0 6.398886147376485e-16
616.0 6.37177508240341e-16
617.0 6.344820382491444e-16
618.0 6.318020907793764e-16
619.0 6.291375528497423e-16
620.0 6.264883124719915e-16
621.0 6.238542586407004e-16
622.0 6.21235281323171e-16
623.0 6.186312714494513e-16
624.0 6.160421209024719e-16
625.0 6.134677225082996e-16
626.0 6.1090797002650205e-16
627.0 6.083627581406292e-16
628.0 6.058319824488021e-16
629.0 6.033155394544156e-16
630.0 6.008133265569435e-16
631.0 5.983252420428574e-16
632.0 5.958511850766453e-16
633.0 5.933910556919378e-16
634.0 5.909447547827344e-16
635.0 5.885121840947348e-16
636.0 5.860932462167662e-16
637.0 5.836878445723112e-16
638.0 5.812958834111352e-16
639.0 5.789172678010059e-16
640.0 5.765519036195106e-16
641.0 5.74199697545967e-16
642.0 5.718605570534259e-16
643.0 5.695343904007649e-16
644.0 5.672211066248735e-16
645.0 5.649206155329267e-16
646.0 5.626328276947453e-16
647.0 5.60357654435245e-16
648.0 5.580950078269705e-16
649.0 5.55844800682712e-16
650.0 5.5360694654820835e-16
651.0 5.51381359694931e-16
652.0 5.49167955112949e-16
653.0 5.469666485038757e-16
654.0 5.4477735627389305e-16
655.0 5.425999955268552e-16
656.0 5.404344840574696e-16
657.0 5.38280740344554e-16
658.0 5.361386835443687e-16
659.0 5.340082334840235e-16
660.0 5.318893106549581e-16
661.0 5.297818362064952e-16
662.0 5.27685731939465e-16
663.0 5.256009202999003e-16
664.0 5.235273243728028e-16
665.0 5.214648678759754e-16
666.0 5.194134751539266e-16
667.0 5.17373071171839e-16
668.0 5.153435815096065e-16
669.0 5.13324932355934e-16
670.0 5.11317050502507e-16
671.0 5.093198633382193e-16
672.0 5.073332988434695e-16
673.0 5.053572855845147e-16
674.0 5.033917527078906e-16
675.0 5.014366299348897e-16
676.0 4.994918475560995e-16
677.0 4.975573364260028e-16
678.0 4.956330279576332e-16
679.0 4.9371885411729085e-16
680.0 4.918147474193158e-16
681.0 4.89920640920916e-16
682.0 4.880364682170519e-16
683.0 4.861621634353782e-16
684.0 4.842976612312369e-16
685.0 4.824428967827069e-16
686.0 4.805978057857048e-16
687.0 4.787623244491409e-16
688.0 4.769363894901235e-16
689.0 4.751199381292175e-16
690.0 4.733129080857529e-16
691.0 4.715152375731829e-16
692.0 4.697268652944913e-16
693.0 4.679477304376506e-16
694.0 4.661777726711255e-16
695.0 4.644169321394267e-16
696.0 4.626651494587099e-16
697.0 4.609223657124233e-16
698.0 4.591885224470001e-16
699.0 4.57463561667596e-16
700.0 4.557474258338716e-16
701.0 4.540400578558216e-16
702.0 4.523414010896447e-16
703.0 4.506513993336585e-16
704.0 4.489699968242573e-16
705.0 4.472971382319115e-16
706.0 4.456327686572095e-16
707.0 4.4397683362694134e-16
708.0 4.423292790902214e-16
709.0 4.406900514146531e-16
710.0 4.390590973825342e-16
711.0 4.374363641870991e-16
712.0 4.358217994288016e-16
713.0 4.342153511116368e-16
